zeta,theta
  1.865320638068940E+00  1.712374383281798E+00 
  1.914408023281280E+00  1.706537175736999E+00 
  1.963495408493621E+00  1.701916567183420E+00 
  2.012582793705961E+00  1.698391567379710E+00 
  2.061670178918302E+00  1.695865613004145E+00 
  2.110757564130642E+00  1.694262131418694E+00 
  2.159844949342983E+00  1.693521210307606E+00 
  2.208932334555324E+00  1.693597097975316E+00 
  2.258019719767663E+00  1.694456341123817E+00 
  2.307107104980004E+00  1.696076424052969E+00 
  2.356194490192345E+00  1.698444813994924E+00 
  2.405281875404685E+00  1.701558347272482E+00 
  2.454369260617026E+00  1.705422913888249E+00 
  2.503456645829367E+00  1.710053416600138E+00 
  2.552544031041707E+00  1.715473996424671E+00 
  2.572927066522122E+00  1.718058482431918E+00 
  2.601631416254047E+00  1.721481915886938E+00 
  2.650718801466388E+00  1.728028974535612E+00 
  2.699806186678729E+00  1.735283012870506E+00 
  2.748893571891069E+00  1.743278844390238E+00 
  2.797980957103409E+00  1.752060388096687E+00 
  2.847068342315750E+00  1.761681614360365E+00 
  2.872668449136935E+00  1.767145867644259E+00 
  2.896155727528090E+00  1.771843661077013E+00 
  2.945243112740431E+00  1.782366813358544E+00 
  2.994330497952772E+00  1.793646901391351E+00 
  3.043417883165112E+00  1.805748518720752E+00 
  3.083081154342204E+00  1.816233252856599E+00 
  3.092505268377453E+00  1.818586238726182E+00 
  3.141592653589793E+00  1.831513821864547E+00 
  3.190680038802133E+00  1.845166315720038E+00 
  3.239767424014474E+00  1.859618014264550E+00 
  3.258118349015462E+00  1.865320638068940E+00 
  3.288854809226815E+00  1.874326757128286E+00 
  3.337942194439155E+00  1.889327075163689E+00 
  3.387029579651496E+00  1.905007452143394E+00 
  3.415157930230279E+00  1.914408023281280E+00 
  3.436116964863836E+00  1.921028024647883E+00 
  3.485204350076177E+00  1.937049111024198E+00 
  3.534291735288518E+00  1.953613768674032E+00 
  3.562538160998097E+00  1.963495408493621E+00 
  3.583379120500858E+00  1.970448396002578E+00 
  3.632466505713198E+00  1.987222452598665E+00 
  3.681553890925539E+00  2.004384598387210E+00 
  3.704364185645710E+00  2.012582793705961E+00 
  3.730641276137879E+00  2.021802729153690E+00 
  3.779728661350220E+00  2.039263282046348E+00 
  3.828816046562560E+00  2.056932871796552E+00 
  3.841710577507199E+00  2.061670178918302E+00 
  3.877903431774901E+00  2.075122263141642E+00 
  3.926990816987241E+00  2.093376137189690E+00 
  3.973676650462119E+00  2.110757564130642E+00 
  3.976078202199582E+00  2.111705969766602E+00 
  4.025165587411922E+00  2.131166012906109E+00 
  4.074252972624263E+00  2.150320802431168E+00 
  4.098692759295480E+00  2.159844949342983E+00 
  4.123340357836604E+00  2.170323696185750E+00 
  4.172427743048944E+00  2.190850438006440E+00 
  4.216706169448572E+00  2.208932334555323E+00 
  4.221515128261284E+00  2.211143030612884E+00 
  4.270602513473625E+00  2.233412780276916E+00 
  4.319689898685965E+00  2.254748765209988E+00 
  4.327290090549450E+00  2.258019719767664E+00 
  4.368777283898306E+00  2.278482496855174E+00 
  4.417864669110647E+00  2.301432098438138E+00 
  4.430288377898790E+00  2.307107104980004E+00 
  4.466952054322987E+00  2.326905949562527E+00 
  4.516039439535327E+00  2.351728014009032E+00 
  4.525149062551450E+00  2.356194490192345E+00 
  4.565126824747668E+00  2.380021685401450E+00 
  4.611249838244086E+00  2.405281875404685E+00 
  4.614214209960009E+00  2.407346508111671E+00 
  4.663301595172349E+00  2.439659217295708E+00 
  4.687689478876170E+00  2.454369260617026E+00 
  4.712388980384690E+00  2.473953193517545E+00 
  4.753737148643280E+00  2.503456645829366E+00 
  4.761476365597030E+00  2.511355785609583E+00 
  4.806931072710798E+00  2.552544031041707E+00 
  4.810563750809370E+00  2.557989710307067E+00 
  4.843797793135865E+00  2.601631416254047E+00 
  4.859242897769041E+00  2.650718801466388E+00 
  4.838755022234108E+00  2.699806186678729E+00 
  4.810563750809370E+00  2.718779514279980E+00 
  4.761476365597030E+00  2.741834003722037E+00 
  4.740301558386757E+00  2.748893571891069E+00 
  4.712388980384690E+00  2.755163761745313E+00 
  4.663301595172349E+00  2.763417675287803E+00 
  4.614214209960009E+00  2.769184105502138E+00 
  4.565126824747669E+00  2.772982369573222E+00 
  4.516039439535327E+00  2.775184976900876E+00 
  4.466952054322987E+00  2.776064680957759E+00 
  4.417864669110647E+00  2.775824391509278E+00 
  4.368777283898306E+00  2.774616794872686E+00 
  4.319689898685965E+00  2.772557569149540E+00 
  4.270602513473625E+00  2.769734486391560E+00 
  4.221515128261284E+00  2.766213798451388E+00 
  4.172427743048944E+00  2.762044782432725E+00 
  4.123340357836604E+00  2.757263008808556E+00 
  4.074252972624263E+00  2.751892701881107E+00 
  4.049735618307169E+00  2.748893571891069E+00 
  4.025165587411922E+00  2.745884409412950E+00 
  3.976078202199582E+00  2.739312134759069E+00 
  3.926990816987241E+00  2.732273261065784E+00 
  3.877903431774901E+00  2.724766087052380E+00 
  3.828816046562561E+00  2.716782896294214E+00 
  3.779728661350219E+00  2.708310305783461E+00 
  3.733277224715121E+00  2.699806186678729E+00 
  3.730641276137879E+00  2.699327621098308E+00 
  3.681553890925539E+00  2.689858732015029E+00 
  3.632466505713198E+00  2.679982004948265E+00 
  3.583379120500858E+00  2.669668711155136E+00 
  3.534291735288517E+00  2.658885864701006E+00 
  3.498854869039177E+00  2.650718801466388E+00 
  3.485204350076177E+00  2.647640934286177E+00 
  3.436116964863836E+00  2.636087851424471E+00 
  3.387029579651496E+00  2.624132565851029E+00 
  3.337942194439155E+00  2.611730404692592E+00 
  3.299551468319645E+00  2.601631416254047E+00 
  3.288854809226815E+00  2.598899229642339E+00 
  3.239767424014474E+00  2.585896870979210E+00 
  3.190680038802133E+00  2.572510441799983E+00 
  3.141592653589793E+00  2.558685489159464E+00 
  3.120583921608331E+00  2.552544031041707E+00 
  3.092505268377453E+00  2.544556043692073E+00 
  3.043417883165112E+00  2.530205522756558E+00 
  2.994330497952772E+00  2.515478900511520E+00 
  2.955451351725848E+00  2.503456645829366E+00 
  2.945243112740431E+00  2.500350946823983E+00 
  2.896155727528090E+00  2.485025254386576E+00 
  2.847068342315750E+00  2.469394869902983E+00 
  2.800993024248640E+00  2.454369260617026E+00 
  2.797980957103409E+00  2.453397634644277E+00 
  2.748893571891069E+00  2.437195127252292E+00 
  2.699806186678729E+00  2.420766881615477E+00 
  2.654383843224592E+00  2.405281875404685E+00 
  2.650718801466388E+00  2.404040302068748E+00 
  2.601631416254047E+00  2.387101879919370E+00 
  2.552544031041707E+00  2.370024241457135E+00 
  2.513354107289084E+00  2.356194490192345E+00 
  2.503456645829366E+00  2.352675557049380E+00 
  2.454369260617026E+00  2.335016210139575E+00 
  2.405281875404685E+00  2.317321413743426E+00 
  2.377259034473760E+00  2.307107104980004E+00 
  2.356194490192345E+00  2.299192626679911E+00 
  2.307107104980004E+00  2.280714595519297E+00 
  2.258019719767664E+00  2.262332324935004E+00 
  2.246617091780837E+00  2.258019719767664E+00 
  2.208932334555323E+00  2.242972409893751E+00 
  2.159844949342983E+00  2.223624932990822E+00 
  2.122240013007672E+00  2.208932334555323E+00 
  2.110757564130642E+00  2.204035801982879E+00 
  2.061670178918302E+00  2.183297605692011E+00 
  2.012582793705961E+00  2.163138917762102E+00 
  2.004543125163723E+00  2.159844949342983E+00 
  1.963495408493621E+00  2.140916109390955E+00 
  1.914408023281280E+00  2.119172466051498E+00 
  1.895030230706066E+00  2.110757564130642E+00 
  1.865320638068940E+00  2.095344728046836E+00 
  1.816233252856599E+00  2.071119647418909E+00 
  1.796392041620148E+00  2.061670178918302E+00 
  1.767145867644259E+00  2.043742050708790E+00 
  1.718058482431918E+00  2.015812397828751E+00 
  1.712155726298757E+00  2.012582793705961E+00 
  1.668971097219578E+00  1.979739659150597E+00 
  1.645550427622840E+00  1.963495408493621E+00 
  1.619883712007237E+00  1.935382998802641E+00 
  1.598649189615083E+00  1.914408023281280E+00 
  1.575666168122415E+00  1.865320638068940E+00 
  1.586304730946555E+00  1.816233252856599E+00 
  1.619883712007237E+00  1.787093097362284E+00 
  1.649799568432001E+00  1.767145867644259E+00 
  1.668971097219578E+00  1.759512533744956E+00 
  1.718058482431918E+00  1.743180537456688E+00 
  1.767145867644259E+00  1.730167035524039E+00 
  1.816233252856599E+00  1.719812107278323E+00 
  1.826310705650254E+00  1.718058482431918E+00 
  1.865320638068940E+00  1.712374383281798E+00 
